id,fid,queimada,latitude,longitude,epsg,swir22_last,nir08_last,ndvi_last
606319,606319,1,-15.75935625285332,-47.69186679343121,4326,2092,2150,2967
606929,606929,1,-15.975887423425934,-47.69376960779721,4326,1172,1011,2661
607927,607927,1,-15.975899628433517,-47.692795152181205,4326,1069,621,1930
608926,608926,1,-15.975353795473149,-47.69181323105389,4326,1116,774,2131
609923,609923,1,-15.975924025237756,-47.69084623842043,4326,1342,1114,2775
610918,610918,1,-15.977610320233223,-47.68989415895236,4326,1138,983,2700
611916,611916,1,-15.977622508969429,-47.68891969188247,4326,1333,1072,2167
612916,612916,1,-15.976518622751582,-47.68793031471428,4326,1593,1287,2440
613915,613915,1,-15.975972766013737,-47.68694839985883,4326,975,662,1737
614913,614913,1,-15.975984940195506,-47.685973938348056,4326,888,643,1819
615872,615872,1,-15.997760525017188,-47.68529009243218,4326,1997,1930,2777
616868,616868,1,-15.998888779496864,-47.684330434161,4326,1759,1116,1376
617867,617867,1,-15.998342922520305,-47.683348407075314,4326,2244,1540,1724
618866,618866,1,-15.997797060207564,-47.68236638484115,4326,1549,1269,2447
619863,619863,1,-15.998367266976809,-47.68139926076282,4326,2077,1367,1530
620860,620860,1,-15.998937470196378,-47.68043213074149,4326,2180,1463,1456
621858,621858,1,-15.998949631845075,-47.679457552787056,4326,2381,1811,1425
622857,622857,1,-15.998403750584195,-47.678475534996245,4326,1727,1103,1696
623899,623899,1,-15.973862148393073,-47.67717405169961,4326,1146,915,2525
624897,624897,1,-15.97387427676557,-47.676199591637314,4326,1459,1448,2718
625895,625895,1,-15.973886400723169,-47.67522513167072,4326,1244,1030,1990
627420,627420,1,-15.67980601917056,-47.67038353890237,4326,1707,1127,1660
628419,628419,1,-15.67925984102445,-47.66940322404064,4326,2013,1421,1797
629427,629427,1,-15.673691120691354,-47.668357628969325,4326,1289,1126,3278
630403,630403,1,-15.685980314858002,-47.66754416886727,4326,1473,1103,1879
631401,631401,1,-15.68599218766233,-47.66657108075406,4326,1172,1385,4046
632477,632477,1,-15.642475236706224,-47.66503329362302,4326,1673,1504,2937
633537,633537,1,-15.607887068928186,-47.66361297103647,4326,1376,2401,5341
635192,635192,1,-15.798209427075912,-47.664140467102015,4326,2220,1715,1576
636190,636190,1,-15.798221367300243,-47.663166842174725,4326,1566,1472,2646
639399,639399,1,-15.67827411295549,-47.65868511717807,4326,1937,2148,3304
640398,640398,1,-15.67772787625442,-47.657704832804384,4326,1621,983,2105
642876,642876,1,-15.96572109835972,-47.658548635705685,4326,1243,1694,4404
643873,643873,1,-15.966291186147508,-47.657581566226064,4326,1477,1120,1985
645436,645436,1,-15.650999711837668,-47.65249367838838,4326,1827,1724,1512
646434,646434,1,-15.651011492058768,-47.651520743931016,4326,1679,1413,1245
652100,652100,1,-15.830779421734816,-47.64801008767426,4326,2065,1609,1346
653098,653098,1,-15.830791313520525,-47.64703629321577,4326,2260,2059,1344
654093,654093,1,-15.832477386540443,-47.64608430374474,4326,1852,2104,1890
655095,655095,1,-15.830257021609222,-47.64508143863763,4326,2194,1669,1443
657408,657408,1,-15.653373083610152,-47.64084707954869,4326,1825,1562,1973
658403,658403,1,-15.655059035034649,-47.63989562228468,4326,1749,1513,2478
659400,659400,1,-15.65562883639356,-47.63892982250088,4326,1600,1507,2271
660397,660397,1,-15.656198634286753,-47.63796401691581,4326,1670,1433,2113
661392,661392,1,-15.657884578445024,-47.63701252463138,4326,1371,1307,2851
662391,662391,1,-15.657338219673957,-47.6360323883417,4326,1284,1006,1884
663389,663389,1,-15.65734993144061,-47.63505941092628,4326,1255,1061,2223
664388,664388,1,-15.656803562699109,-47.63407928118596,4326,1395,1359,2188
665387,665387,1,-15.656257188738136,-47.633099156181295,4326,1141,909,2047
666386,666386,1,-15.65571080955817,-47.632119035912304,4326,1138,1081,2892
667385,667385,1,-15.655164425170891,-47.6311389194469,4326,1311,1080,2258
668383,668383,1,-15.655176113627029,-47.630165948469575,4326,1204,1168,2445
669413,669413,1,-15.637329260779854,-47.62896472881971,4326,1443,1192,2468
670480,670480,1,-15.598833335780729,-47.62750086126249,4326,1794,2421,3030
671409,671409,1,-15.637352588170875,-47.627018951232095,4326,1686,1652,2124
672408,672408,1,-15.636806164577193,-47.62603894109223,4326,1426,1125,2619
675374,675374,1,-15.652467406130214,-47.62331952466623,4326,1204,2264,4875
676856,676856,1,-15.939340792723993,-47.62506847153831,4326,1734,1577,2461
677852,677852,1,-15.940468792566053,-47.624108657740656,4326,2168,2394,1643
678850,678850,1,-15.940480656478805,-47.62313431798261,4326,2014,1591,1711
680401,680401,1,-15.63187650367182,-47.61819193374867,4326,2140,1078,2180
681401,681401,1,-15.630771947642456,-47.61720487485635,4326,2224,1289,2293
682026,682026,1,-15.83894731278717,-47.61889665335471,4326,2233,2098,2954
683295,683295,1,-15.687719785738702,-47.615983591314446,4326,1179,936,2795
684293,684293,1,-15.687731430428354,-47.61501045432404,4326,1121,843,2753
685291,685291,1,-15.687743070796769,-47.61403731651918,4326,1148,880,2800
686290,686290,1,-15.687196622755934,-47.61305706895419,4326,1165,1552,4837
691892,691892,1,-15.90268548991268,-47.60997735478877,4326,1761,1548,2478
694869,694869,1,-15.912208087497694,-47.607177202420296,4326,1919,1927,2188
705823,705823,1,-15.925731194180903,-47.59663294498564,4326,1734,1249,1760
718225,718225,1,-15.688124778661628,-47.58192331216348,4326,2030,2148,1959
720778,720778,1,-15.934277952584964,-47.58212559353665,4326,1933,1866,1493
721929,721929,1,-15.848902131027389,-47.580062373057785,4326,2547,2664,2613
722880,722880,1,-15.875143978151598,-47.57942210086805,4326,1601,989,1879
723785,723785,1,-15.927057821837238,-47.57910985610996,4326,2450,1362,2259
724784,724784,1,-15.926511385521753,-47.57812841949083,4326,2367,1348,2260
725783,725783,1,-15.9259649439251,-47.57714698771965,4326,2208,1169,2208
726782,726782,1,-15.925418497047746,-47.576165560796426,4326,2303,1372,2120
727755,727755,1,-15.939382341300218,-47.57536929068135,4326,1464,1518,2957
728753,728753,1,-15.939393984190668,-47.5743949183241,4326,1367,847,1666
729860,729860,1,-15.878573748693675,-47.57264619252051,4326,3706,2094,2006
731937,731937,1,-15.83339126496899,-47.5701251937072,4326,2646,1730,2753
734704,734704,1,-15.9601130999174,-47.5688117852036,4326,1538,1702,3209
735701,735701,1,-15.960682818000436,-47.56784442162073,4326,2448,3446,3833
747221,747221,1,-15.658318323838456,-47.553326404033626,4326,1526,1413,3580
751406,751406,1,-15.550647139161434,-47.54810336043725,4326,1659,1005,2159
752406,752406,1,-15.549542135971418,-47.54711708585125,4326,1366,672,1768
753406,753406,1,-15.548437135713115,-47.54613082215245,4326,1889,1237,2326
754406,754406,1,-15.547332129355713,-47.54514456922876,4326,1960,1127,1989
758213,758213,1,-15.6506292475717,-47.5425262242091,4326,2723,2146,1669
759211,759211,1,-15.650640539378314,-47.54155320631062,4326,2497,1750,1460
760209,760209,1,-15.650651826873467,-47.54058018762103,4326,2495,1663,1496
761207,761207,1,-15.650663110057138,-47.53960716814064,4326,2520,1862,1525
762394,762394,1,-15.545189357281169,-47.53733696125454,4326,2450,1578,1820
763395,763395,1,-15.543526176716922,-47.53634393329156,4326,2428,1627,1785
764391,764391,1,-15.54465361715299,-47.535385078201664,4326,2357,1576,1769
765326,765326,1,-15.579826685800477,-47.53484333903244,4326,1672,1013,1710
766323,766323,1,-15.580396018313388,-47.533877493324695,4326,1707,927,1682
767389,767389,1,-15.54245465442384,-47.53244020892959,4326,2290,1491,1767
768316,768316,1,-15.582092798050676,-47.5319526243217,4326,2183,2059,2040
774963,774963,1,-15.77137474289094,-47.52747199637048,4326,1896,1610,1528
776315,776315,1,-15.573810322248985,-47.52406872953058,4326,2091,2289,2957
777161,777161,1,-15.658656802622534,-47.52413467604034,4326,2790,2690,2188
778157,778157,1,-15.659784268434306,-47.52317530938668,4326,2242,2037,1805
779156,779156,1,-15.659237355301352,-47.52219538357829,4326,1791,905,1892
780155,780155,1,-15.658690436973364,-47.521215463463065,4326,1699,1011,2093
781154,781154,1,-15.658143513461576,-47.52023554810883,4326,1559,1013,2182
782152,782152,1,-15.65815471154715,-47.51926247784103,4326,1837,1331,2450
783150,783150,1,-15.658165905318798,-47.51828940678893,4326,1806,1367,2444
784148,784148,1,-15.658177094776514,-47.51731633495284,4326,1791,1413,2254
785147,785147,1,-15.657630151883618,-47.51633642991351,4326,1688,999,1780
786146,786146,1,-15.657083203808794,-47.51535652963583,4326,1938,1351,1666
787145,787145,1,-15.656536250552518,-47.51437663411982,4326,1952,1103,1898
788145,788145,1,-15.655431162698946,-47.51338991994872,4326,2468,1391,2064
789143,789143,1,-15.655442328497523,-47.51241685737287,4326,2224,1477,2661
790141,790141,1,-15.655453489982875,-47.51144379401489,4326,2127,1594,2457
791139,791139,1,-15.655464647154991,-47.51047072987508,4326,2068,2669,2509
792138,792138,1,-15.654917668895855,-47.50949085235048,4326,1458,1297,2944
793140,793140,1,-15.65269629058144,-47.50849055121352,4326,2287,1015,2192
794153,794153,1,-15.64433544781752,-47.50741543713613,4326,1755,1358,1772
795302,795302,1,-15.560068125881378,-47.50541883262628,4326,2535,1468,2022
797297,797297,1,-15.560648388858464,-47.50348034684319,4326,2266,1415,2109
798295,798295,1,-15.56065944508306,-47.50250772365339,4326,2198,1212,2180
798909,798909,1,-15.7749937389741,-47.504146424870655,4326,944,2305,6278
799906,799906,1,-15.775563074120392,-47.503179637681065,4326,1170,1044,2700
800904,800904,1,-15.775574277628658,-47.50220599676936,4326,1242,985,2539
801640,801640,1,-15.921814093558194,-47.50303516930993,4326,3355,3401,2013
802638,802638,1,-15.921825397450329,-47.50206082684949,4326,2679,1678,2063
803637,803637,1,-15.92127857586189,-47.50107957224082,4326,2716,1848,2122
805249,805249,1,-15.578597240676196,-47.49591491006054,4326,2106,1579,1388
806247,806247,1,-15.57860827588523,-47.49494219685732,4326,1643,1043,1679
807245,807245,1,-15.57861930680304,-47.493969482878455,4326,1606,1018,1694
808244,808244,1,-15.578072191364868,-47.49299003426153,4326,1824,1277,1769
809242,809242,1,-15.57808321328586,-47.49201732135275,4326,1606,926,1833
811239,811239,1,-15.577547100905653,-47.490065168412976,4326,1714,1193,1730
811617,811617,1,-15.923601307972824,-47.49331237986855,4326,3137,4038,2524
812616,812616,1,-15.923054444468391,-47.4923311335228,4326,2751,2010,1703
813613,813613,1,-15.923623826044338,-47.49136366242609,4326,2802,2189,1746
814611,814611,1,-15.923635078493351,-47.49038930253564,4326,2156,1205,1913
815609,815609,1,-15.92364632655117,-47.48941494186612,4326,2069,1059,1892
816609,816609,1,-15.92254131739768,-47.4884268261502,4326,2195,1207,1998
817608,817608,1,-15.921994428972848,-47.48744559525668,4326,2070,1253,1693
819342,819342,1,-15.511215367271136,-47.48148761927379,4326,3003,2354,1814
820264,820264,1,-15.553645670849464,-47.4810228305183,4326,2019,2227,3509
821263,821263,1,-15.553098474287626,-47.48004353682384,4326,2246,2099,2210
822257,822257,1,-15.555342018732242,-47.47909766873959,4326,2558,2306,1774
823255,823255,1,-15.555352963683864,-47.47812505236409,4326,2126,1453,1808
824252,824252,1,-15.55592205430855,-47.47715911515817,4326,1647,959,1810
825250,825250,1,-15.555932991102363,-47.47618649462655,4326,1802,1090,1651
826248,826248,1,-15.555943923611276,-47.475213873325416,4326,1786,1109,1723
827245,827245,1,-15.556513002996482,-47.47424792361544,4326,2131,2000,1876
828243,828243,1,-15.5565239273467,-47.47327529815984,4326,1817,1769,2414
829136,829136,1,-15.61514064190643,-47.47300421944639,4326,1386,1291,3419
830135,830135,1,-15.614593451704238,-47.47202462435443,4326,1371,880,2316
831132,831132,1,-15.61516255546463,-47.47105841407238,4326,1726,978,2411
832127,832127,1,-15.616847955465833,-47.47010557445119,4326,1256,764,1497
833125,833125,1,-15.616858902721445,-47.469132661959314,4326,1451,965,2387
834125,834125,1,-15.615753544280045,-47.468146382795126,4326,1403,979,1895
835127,835127,1,-15.613531877306714,-47.46714675595344,4326,2139,1179,2018
836125,836125,1,-15.613542809204333,-47.46617385599164,4326,1558,663,1924
837123,837123,1,-15.613553736789784,-47.46520095619467,4326,1852,991,2152
838123,838123,1,-15.612448355025744,-47.46421471397304,4326,2131,1013,2437
839122,839122,1,-15.611901120208412,-47.46323515009814,4326,2023,960,2198
840121,840121,1,-15.6113538802397,-47.46225559097953,4326,1693,762,2240
841119,841119,1,-15.611364788981131,-47.461282698625325,4326,1745,855,2266
842120,842120,1,-15.609701230517675,-47.46028982816637,4326,1437,969,1809
846460,846460,1,-15.972550797258938,-47.45980171855709,4326,2336,2569,3310
847457,847457,1,-15.973120076782672,-47.45883391672376,4326,2250,1543,1970
848455,848455,1,-15.973131215939638,-47.4578592936973,4326,1975,1353,1780
849453,849453,1,-15.973142350701314,-47.456884668967554,4326,2000,1351,1939
850452,850452,1,-15.972595343448322,-47.45590323476197,4326,1881,1153,1856
851450,851450,1,-15.972606468978464,-47.45492861212333,4326,2128,1278,1461
852448,852448,1,-15.972617590102754,-47.45395398871601,4326,2106,1635,2079
853450,853450,1,-15.970396151207115,-47.45295216102066,4326,2387,1504,1658
854448,854448,1,-15.97040726188605,-47.45197754685902,4326,2651,1589,1735
855445,855445,1,-15.970976507927483,-47.45100972701501,4326,2790,1675,1742
856443,856443,1,-15.970987610203997,-47.45003510862279,4326,2793,1585,1854
857440,857440,1,-15.971556848627076,-47.4490672794267,4326,2866,1665,1931
858438,858438,1,-15.97156794250045,-47.44809265680495,4326,2850,1627,1837
859437,859437,1,-15.971020890600826,-47.447111248844415,4326,2440,1237,1769
860435,860435,1,-15.971031975255489,-47.44613662738541,4326,2663,1383,1937
861431,861431,1,-15.972159339837066,-47.445175563791054,4326,2662,1353,1847
862428,862428,1,-15.972728559020696,-47.44420771243122,4326,2890,1666,2024
863425,863425,1,-15.973297774591268,-47.443239854248894,4326,2950,1711,2015
864424,864424,1,-15.97275069994317,-47.44225844704664,4326,2675,1359,1936
865420,865420,1,-15.973878051187205,-47.441297352346695,4326,2556,1369,1776
866416,866416,1,-15.975005399524251,-47.440336247169554,4326,2785,2213,2166
867418,867418,1,-15.972783878265563,-47.43933454463546,4326,2522,1554,1849
868416,868416,1,-15.97279492889419,-47.438359908970334,4326,2474,1573,1822
869414,869414,1,-15.972805975116708,-47.43738527254168,4326,2475,1712,2120
870412,870412,1,-15.972817016933098,-47.436410635349816,4326,2122,2293,3354
871412,871412,1,-15.971711761946684,-47.43542249214333,4326,2365,1637,2076
872410,872410,1,-15.971722794139794,-47.43444785881759,4326,2358,1576,1957
873412,873412,1,-15.969501233510314,-47.43344623899716,4326,2248,1189,2083
874411,874411,1,-15.968954107682537,-47.43246487185897,4326,2025,1095,2066
895491,895491,1,-15.901089244281913,-47.41118388120045,4326,1898,1368,1742
901725,901725,1,-15.763845520329316,-47.40371303507245,4326,1946,1369,1314
934759,934759,1,-15.70837951908999,-47.370934667885535,4326,2258,2266,1882
949165,949165,1,-16.023353060398755,-47.35999522144952,4326,2174,2725,2930
962656,962656,1,-15.734909027617594,-47.3439791079993,4326,2256,2698,2183
917535,917535,0,-15.85220851345312,-47.38916953510935,4326,1966,2712,4811
918161,918161,0,-16.05985706300113,-47.39065736510914,4326,2990,3295,2846
919159,919159,0,-16.059867950606467,-47.3896822707343,4326,3041,3347,2765
920157,920157,0,-16.05987883376937,-47.388707176544045,4326,2933,3110,2896
921155,921155,0,-16.05988971250026,-47.387732081604575,4326,830,2837,7378
922153,922153,0,-16.05990058679911,-47.3867569859162,4326,705,2520,7542
923151,923151,0,-16.059911456665922,-47.385781889479226,4326,904,1995,6272
924149,924149,0,-16.059922322100665,-47.38480679229395,4326,632,2420,7651
925147,925147,0,-16.05993318310333,-47.38383169436068,4326,391,1620,6371
926145,926145,0,-16.0599440396739,-47.38285659567972,4326,1085,2543,6285
927143,927143,0,-16.059954891812367,-47.38188149625137,4326,2319,3521,4132
928141,928141,0,-16.059965739518702,-47.38090639607594,4326,1276,3488,5679
929139,929139,0,-16.059976582792906,-47.37993129515375,4326,2226,3021,3769
930137,930137,0,-16.059987421634954,-47.378956193485074,4326,2490,2740,2888
931135,931135,0,-16.059998256044825,-47.37798109107024,4326,2451,2710,2792
932133,932133,0,-16.060009086022518,-47.37700598790955,4326,2099,3313,3402
933131,933131,0,-16.060019911578376,-47.37603088306918,4326,3137,3521,2302
934129,934129,0,-16.060030732691644,-47.37505577841768,4326,1718,2755,4201
935127,935127,0,-16.06004154937268,-47.37408067302123,4326,2591,3524,3240
936125,936125,0,-16.060052361621477,-47.37310556688015,4326,3227,3647,2383
937123,937123,0,-16.060063169438013,-47.372130459994736,4326,3196,3534,2391
938121,938121,0,-16.06007397282227,-47.37115535236529,4326,3225,3545,2475
939119,939119,0,-16.060084771774232,-47.37018024399213,4326,3220,3671,2362
940117,940117,0,-16.060095566293892,-47.36920513487553,4326,983,3196,6781
941115,941115,0,-16.06010635638123,-47.36823002501583,4326,520,3333,8542
942113,942113,0,-16.06011714203623,-47.36725491441332,4326,2372,3507,4104
943111,943111,0,-16.06012792325888,-47.366279803068295,4326,2255,2368,3010
944109,944109,0,-16.060138700049166,-47.36530469098108,4326,2288,2519,3143
945107,945107,0,-16.06014947240706,-47.36432957815196,4326,2379,2738,3153
946105,946105,0,-16.06016024033256,-47.36335446458126,4326,1081,2742,6508
947103,947103,0,-16.06017100383597,-47.36237934933514,4326,960,2479,6245
948101,948101,0,-16.060181762896622,-47.361404234282176,4326,2342,2955,3310
949099,949099,0,-16.06019251752484,-47.36042911848853,4326,2518,2985,2874
950097,950097,0,-16.060203267720592,-47.359454001954525,4326,2605,2971,2795
951095,951095,0,-16.06021401348388,-47.35847888468045,4326,2837,3183,2726
952093,952093,0,-16.06022475481468,-47.35750376666661,4326,2844,3291,2855
953091,953091,0,-16.060235491712973,-47.35652864791332,4326,2024,2642,3493
954089,954089,0,-16.06024622417875,-47.35555352842088,4326,2086,2900,3650
955087,955087,0,-16.06025695221199,-47.3545784081896,4326,1015,2800,6568
956085,956085,0,-16.060267675812685,-47.35360328721978,4326,1480,2086,2968
957083,957083,0,-16.060278394980816,-47.352628165511724,4326,2688,2590,2350
958081,958081,0,-16.060289109716372,-47.35165304306574,4326,1300,2538,5613
959079,959079,0,-16.060299820019335,-47.35067791988213,4326,2029,2431,3382
960077,960077,0,-16.060310525889687,-47.3497027959612,4326,2793,2741,2745
961075,961075,0,-16.06032122733766,-47.34872767036912,4326,2784,2856,2807
962073,962073,0,-16.060331924342748,-47.34775254497446,4326,2836,3091,2256
963071,963071,0,-16.06034261691518,-47.3467774188434,4326,2276,3425,3397
964069,964069,0,-16.060353305054942,-47.34580229197625,4326,1126,2975,6319
965067,965067,0,-16.060363988762024,-47.34482716437329,4326,2057,3046,3789
966065,966065,0,-16.060374668036406,-47.34385203603485,4326,993,2612,6469
967063,967063,0,-16.060385342878078,-47.34287690696124,4326,1470,2908,5141
968061,968061,0,-16.060396013287015,-47.341901777152735,4326,1639,2532,3805
969059,969059,0,-16.060406679263213,-47.34092664660966,4326,1821,2693,3388
970057,970057,0,-16.060417340806648,-47.33995151533231,4326,2726,2683,2614
971055,971055,0,-16.060427997917312,-47.33897638332101,4326,2776,2482,2850
972053,972053,0,-16.06043865059519,-47.33800125057604,4326,2780,2488,2897
973051,973051,0,-16.060449298840265,-47.337026117097714,4326,2752,2499,2894
974049,974049,0,-16.060459942652514,-47.33605098288634,4326,2777,2539,2924
975047,975047,0,-16.060470582042132,-47.33507584700808,4326,2761,2541,2905
976045,976045,0,-16.060481216988702,-47.33410071133152,4326,2742,2569,2945
977043,977043,0,-16.06049184750241,-47.33312557492284,4326,2773,2589,2932
978041,978041,0,-16.060502473583234,-47.33215043778232,4326,2460,2871,2274
979039,979039,0,-16.06051309523117,-47.33117529991028,4326,2418,2810,2300
980037,980037,0,-16.060523712446194,-47.33020016130703,4326,2355,2719,2198
981035,981035,0,-16.060534325228303,-47.32922502197285,4326,2763,3068,1909
982033,982033,0,-16.060544933577468,-47.32824988190807,4326,2444,2804,2042
